"Time","I_L:Measured current"
0,0
9.9999999999999995e-08,0.057101333870663795
1.9999999999999999e-07,0.12284954108776014
2.9999999999999999e-07,0.18880569464894031
3.9999999999999998e-07,0.25493884695259428
4.9999999999999998e-07,0.32116068359455618
5.9999999999999997e-07,0.38752798392763405
6.9999999999999997e-07,0.44065085203593357
7.9999999999999996e-07,0.44048329540563863
8.9999999999999996e-07,0.44033355870333346
9.9999999999999995e-07,0.44013315759022253
1.1000000000000001e-06,0.44001886996732031
1.1999999999999999e-06,0.43983500785357305
1.2999999999999998e-06,0.43967837624705408
1.3999999999999999e-06,0.43947667472041829
1.5e-06,0.43923512422717154
1.5999999999999999e-06,0.43920267796267681
1.6999999999999998e-06,0.43900555780155792
1.7999999999999999e-06,0.4388218860573993
1.9e-06,0.43870623420362209
1.9999999999999999e-06,0.43853147266401571
2.0999999999999998e-06,0.43834906582348809
2.2000000000000001e-06,0.43814149359178767
2.3e-06,0.43792343660176347
2.3999999999999999e-06,0.43789590384164445
2.4999999999999998e-06,0.43772794786842351
2.5999999999999997e-06,0.43754545394414335
2.7e-06,0.43739668091790518
2.7999999999999999e-06,0.43719824810055186
2.8999999999999998e-06,0.43705109681780702
3.0000000000000001e-06,0.43690740332560529
3.1e-06,0.43672529812653027
3.1999999999999999e-06,0.43650910995628389
3.2999999999999997e-06,0.43635072362689237
3.3999999999999996e-06,0.48339353424565745
3.4999999999999999e-06,0.55355624458871777
3.5999999999999998e-06,0.62385753357888185
3.6999999999999997e-06,0.69416010779447901
3.8e-06,0.7646185166984043
3.8999999999999999e-06,0.83513359699374901
3.9999999999999998e-06,0.90578053591293206
4.0999999999999997e-06,0.9765532647662345
4.1999999999999996e-06,1.0471913781403916
4.2999999999999995e-06,1.118086155808802
4.4000000000000002e-06,1.1890480727357369
4.5000000000000001e-06,1.260023486120994
4.6e-06,1.3311352561651273
4.6999999999999999e-06,1.3879328845342287
4.7999999999999998e-06,1.3873902747264253
4.8999999999999997e-06,1.3868223070045718
4.9999999999999996e-06,1.3863370935432813
5.0999999999999995e-06,1.3857217445565275
5.1999999999999993e-06,1.3853669997247116
5.3000000000000001e-06,1.3848375297078204
5.4e-06,1.3842926349151894
5.4999999999999999e-06,1.3837573359445632
5.5999999999999997e-06,1.3832870990130701
5.6999999999999996e-06,1.3827543626583116
5.7999999999999995e-06,1.3822766489720093
5.8999999999999994e-06,1.3817509480902519
6.0000000000000002e-06,1.3812194506230813
6.1e-06,1.3807248318518541
6.1999999999999999e-06,1.3801903159396309
6.2999999999999998e-06,1.3796208104079215
6.3999999999999997e-06,1.3791087659207202
6.4999999999999996e-06,1.3786642887039777
6.5999999999999995e-06,1.3781174968200134
6.6999999999999994e-06,1.3776537845217804
6.7999999999999993e-06,1.3771194972057208
6.9e-06,1.3766142170440081
6.9999999999999999e-06,1.3760598882490815
7.0999999999999998e-06,1.3754660160843311
7.1999999999999997e-06,1.3750747196572202
7.2999999999999996e-06,1.3745712138645403
7.3999999999999995e-06,1.4242034800847101
7.4999999999999993e-06,1.4984828086296891
7.6000000000000001e-06,1.5728678320022245
7.6999999999999991e-06,1.6473569777277086
7.7999999999999999e-06,1.7218819187606009
7.8999999999999989e-06,1.7964242509205288
7.9999999999999996e-06,1.8709488356169024
8.1000000000000004e-06,1.9456649076372317
8.1999999999999994e-06,2.0204040746427778
8.3000000000000002e-06,2.0952520739415279
8.3999999999999992e-06,2.1701857232707105
8.4999999999999999e-06,2.2451328158942139
8.599999999999999e-06,2.3201885142520622
8.6999999999999997e-06,2.3799972331508283
8.8000000000000004e-06,2.3791096887704066
8.8999999999999995e-06,2.3782270285700209
9.0000000000000002e-06,2.3773092418362753
9.0999999999999993e-06,2.376475467685188
9.2e-06,2.3755695628163553
9.299999999999999e-06,2.3746901446138144
9.3999999999999998e-06,2.3737494217948951
9.4999999999999988e-06,2.3728085382219417
9.5999999999999996e-06,2.3720573665005276
9.7000000000000003e-06,2.3711686221607073
9.7999999999999993e-06,2.370260060513782
9.9000000000000001e-06,2.3694018924976192
9.9999999999999991e-06,2.3685009925239089
1.01e-05,2.3675748407983401
1.0199999999999999e-05,2.3667502949499384
1.03e-05,2.3658326338513636
1.0399999999999999e-05,2.3649352106469608
1.0499999999999999e-05,2.3641006266876183
1.06e-05,2.363145000038724
1.0699999999999999e-05,2.3622362262063987
1.08e-05,2.3614077585716187
1.0899999999999999e-05,2.3604258221175187
1.1e-05,2.3597200568007417
1.1099999999999999e-05,2.3588270516534595
1.1199999999999999e-05,2.357918505186833
1.13e-05,2.3570172085078629
1.1399999999999999e-05,2.4090681289984479
1.15e-05,2.4871000309297568
1.1599999999999999e-05,2.5651614955441842
1.17e-05,2.6432897870168524
1.1799999999999999e-05,2.7214937762996088
1.19e-05,2.7997607334192565
1.2e-05,2.8779708037202205
1.2099999999999999e-05,2.9563034337565131
1.22e-05,3.0347664671066434
1.2299999999999999e-05,3.1132794505880765
1.24e-05,3.1917119979337429
1.2499999999999999e-05,3.2703964184808041
1.26e-05,3.3488633892825947
1.2699999999999999e-05,3.4115196077927434
1.2799999999999999e-05,3.4102223146694013
1.29e-05,3.4088983567166591
1.2999999999999999e-05,3.407731153587251
1.31e-05,3.4064546740612509
1.3199999999999999e-05,3.405146566378384
1.33e-05,3.4039259228007639
1.3399999999999999e-05,3.4026364775122349
1.3499999999999999e-05,3.4014005496152402
1.3599999999999999e-05,3.4001343067078653
1.3699999999999999e-05,3.3988685349216858
1.38e-05,3.397603234341052
1.3899999999999999e-05,3.396338404795189
1.4e-05,3.3950740461088302
1.4099999999999999e-05,3.3938101581066906
1.42e-05,3.3925467406135481
1.4299999999999999e-05,3.3912837934542424
1.4399999999999999e-05,3.3900213164536859
1.45e-05,3.388759309436852
1.4599999999999999e-05,3.3874977722287762
1.47e-05,3.3862367046545616
1.4799999999999999e-05,3.3849761065393817
1.49e-05,3.3837159777084707
1.4999999999999999e-05,3.3824563179871237
1.5099999999999999e-05,3.3811971272007053
1.52e-05,3.3799384051746446
1.5299999999999999e-05,3.3786801517344376
1.5399999999999998e-05,3.4328776179448104
1.5500000000000001e-05,3.5144115695085354
1.56e-05,3.5959792053274287
1.5699999999999999e-05,3.6775852776732636
1.5799999999999998e-05,3.7592335791485718
1.59e-05,3.8409271342123366
1.5999999999999999e-05,3.9226683490345264
1.6099999999999998e-05,4.0044591352649537
1.6200000000000001e-05,4.0863010080333586
1.63e-05,4.1681951633436443
1.6399999999999999e-05,4.2501425429734843
1.6499999999999998e-05,4.3321438833504029
1.66e-05,4.41419975717693
1.6699999999999999e-05,4.4795490768294899
1.6799999999999998e-05,4.4778814707461416
1.6900000000000001e-05,4.4762144848162837
1.7e-05,4.4745481194570802
1.7099999999999999e-05,4.4728823744375665
1.7199999999999998e-05,4.4712172495268039
1.73e-05,4.4695527444939618
1.7399999999999999e-05,4.4678888591082577
1.7499999999999998e-05,4.4662255931390238
1.7600000000000001e-05,4.4645629463556658
1.77e-05,4.4629009185276791
1.7799999999999999e-05,4.4612395094246438
1.7899999999999998e-05,4.4595787188162337
1.8e-05,4.4579185464721949
1.8099999999999999e-05,4.4562589921623665
1.8199999999999999e-05,4.4546000556566749
1.8299999999999998e-05,4.4529417367251281
1.84e-05,4.45128403513782
1.8499999999999999e-05,4.4496269506649266
1.8599999999999998e-05,4.4479704830767099
1.8700000000000001e-05,4.4463146321435367
1.88e-05,4.4446593976358431
1.8899999999999999e-05,4.4430047793241405
1.8999999999999998e-05,4.4413507769790463
1.91e-05,4.439697390371248
1.9199999999999999e-05,4.4380446192715217
1.9299999999999998e-05,4.4363924634507459
1.9400000000000001e-05,4.4927418400720915
1.95e-05,4.5776701373130226
1.9599999999999999e-05,4.6626198724179035
1.9699999999999998e-05,4.7475975062312106
1.98e-05,4.8326082070569791
1.9899999999999999e-05,4.9176561072064748
1.9999999999999998e-05,5.0027445069447944
2.0100000000000001e-05,5.0878760398209621
2.02e-05,5.1730528041371713
2.0299999999999999e-05,5.2582764689578037
2.0399999999999998e-05,5.3435483587751289
2.05e-05,5.4288695225758152
2.0599999999999999e-05,5.5142407874581245
2.0699999999999998e-05,5.5821573015366299
2.0799999999999997e-05,5.5800792270076105
2.09e-05,5.5780019246895458
2.0999999999999999e-05,5.5759253956911321
2.1099999999999998e-05,5.5738496397244752
2.12e-05,5.5717746565018071
2.1299999999999999e-05,5.5697004457354602
2.1399999999999998e-05,5.5676270071378671
2.1499999999999997e-05,5.565554340421575
2.16e-05,5.5634824452992433
2.1699999999999999e-05,5.5614113214836172
2.1799999999999998e-05,5.5593409686875574
2.19e-05,5.5572713866240449
2.1999999999999999e-05,5.5552025750061436
2.2099999999999998e-05,5.553134533547059
2.2199999999999998e-05,5.5510672619600792
2.23e-05,5.5490007599585907
2.2399999999999999e-05,5.5469350272561133
2.2499999999999998e-05,5.544870063566254
2.26e-05,5.5428058686027253
2.27e-05,5.5407424420793605
2.2799999999999999e-05,5.5386797837100996
2.2899999999999998e-05,5.5366178932089678
2.3e-05,5.5345567702901075
2.3099999999999999e-05,5.5324964146677775
2.3199999999999998e-05,5.5304368260563335
2.3300000000000001e-05,5.5283780041702366
2.34e-05,5.5868229028051157
2.3499999999999999e-05,5.67506798356301
2.3599999999999998e-05,5.7633226894070475
2.37e-05,5.8515952333060204
2.3799999999999999e-05,5.9398921917422367
2.3899999999999998e-05,6.0282188287228893
2.4000000000000001e-05,6.1165793555237302
2.41e-05,6.204977139281123
2.4199999999999999e-05,6.2934148682765043
2.4299999999999998e-05,6.3818946883000276
2.44e-05,6.470418308048222
2.4499999999999999e-05,6.5589870869326061
2.4599999999999998e-05,6.6476021038195903
2.4699999999999997e-05,6.7180264236591789
2.48e-05,6.7155254979234931
2.4899999999999999e-05,6.7130255017556353
2.4999999999999998e-05,6.7105264362641259
2.51e-05,6.7080283011025239
2.5199999999999999e-05,6.7055310959244787
2.5299999999999998e-05,6.7030348203837926
2.5399999999999997e-05,6.7005394741343931
2.55e-05,6.6980450568303169
2.5599999999999999e-05,6.6955515681257642
2.5699999999999998e-05,6.6930590076750276
2.58e-05,6.6905673751325461
2.5899999999999999e-05,6.6880766701528946
2.5999999999999998e-05,6.6855868923907584
2.6099999999999997e-05,6.6830980415009682
2.62e-05,6.680610117138472
2.6299999999999999e-05,6.6781231189583572
2.6399999999999998e-05,6.6756370466158295
2.65e-05,6.6731518997662214
2.6599999999999999e-05,6.6706676780649943
2.6699999999999998e-05,6.6681843811677615
2.6799999999999998e-05,6.665702008730241
2.69e-05,6.6632205604082717
2.6999999999999999e-05,6.6607400358578426
2.7099999999999998e-05,6.6582604347350482
2.7199999999999997e-05,6.6557817566961308
2.73e-05,6.6533040013974478
2.7399999999999999e-05,6.7138020032375989
2.7499999999999998e-05,6.8053066257747536
2.76e-05,6.8968091474938777
2.7699999999999999e-05,6.9883195805763947
2.7799999999999998e-05,7.0798459470017274
2.7899999999999997e-05,7.1713946718612052
2.8e-05,7.2629708995182805
2.8099999999999999e-05,7.3545787462804286
2.8199999999999998e-05,7.4462215043569246
2.83e-05,7.5379018038527992
2.8399999999999999e-05,7.6296217450592598
2.8499999999999998e-05,7.7213830017758642
2.8599999999999997e-05,7.8131869066536375
2.87e-05,7.8860507748101352
2.8799999999999999e-05,7.8830415097310214
2.8899999999999998e-05,7.8800955235149397
2.9e-05,7.8771619555931442
2.9099999999999999e-05,7.8742295150821757
2.9199999999999998e-05,7.8712981668658752
2.9299999999999997e-05,7.8683679099171506
2.94e-05,7.8654387438186406
2.9499999999999999e-05,7.8625106681640728
2.9599999999999998e-05,7.8595836825474974
2.97e-05,7.8566577865631153
2.9799999999999999e-05,7.8537329798052884
2.9899999999999998e-05,7.8508092618685446
2.9999999999999997e-05,7.8478866323475289
3.01e-05,7.8449650908370874
3.0199999999999999e-05,7.8420446369321475
3.0299999999999998e-05,7.8391252702278305
3.04e-05,7.8362069903194174
3.0499999999999999e-05,7.8332897968023314
3.0599999999999998e-05,7.8303736892721219
3.0700000000000001e-05,7.8274586673245139
3.0799999999999996e-05,7.8245447305553819
3.0899999999999999e-05,7.8216318785607415
3.1000000000000001e-05,7.8187201109367681
3.1099999999999997e-05,7.8158094272797625
3.1199999999999999e-05,7.8128998271862278
3.1300000000000002e-05,7.8099913102527525
3.1399999999999998e-05,7.8725069874533755
3.15e-05,7.9672240061916222
3.1599999999999996e-05,8.0619271343398449
3.1699999999999998e-05,8.1566282312293374
3.18e-05,8.2513368009887174
3.1899999999999996e-05,8.3460604598803734
3.1999999999999999e-05,8.4408053081278922
3.2100000000000001e-05,8.5355762300456721
3.2199999999999997e-05,8.6303771350545961
3.2299999999999999e-05,8.7252111495127966
3.2400000000000001e-05,8.8200807720972776
3.2499999999999997e-05,8.9149879980669571
3.26e-05,9.0099344188660222
3.2699999999999995e-05,9.0851844894866769
3.2799999999999998e-05,9.0815411665093215
3.29e-05,9.0779568283981025
3.2999999999999996e-05,9.0744280272461832
3.3099999999999998e-05,9.0709515562901473
3.3200000000000001e-05,9.0675244335775371
3.3299999999999996e-05,9.0641399437054879
3.3399999999999999e-05,9.0607656003937453
3.3500000000000001e-05,9.0573925386151739
3.3599999999999997e-05,9.0540207329836022
3.3699999999999999e-05,9.0506501825859811
3.3800000000000002e-05,9.0472808869470693
3.3899999999999997e-05,9.0439128455995927
3.4e-05,9.0405460580766448
3.4099999999999995e-05,9.0371805239114416
3.4199999999999998e-05,9.0338162426373874
3.43e-05,9.0304532137880695
3.4399999999999996e-05,9.0270914368972672
3.4499999999999998e-05,9.0237309114988911
3.4600000000000001e-05,9.0203716371270524
3.4699999999999996e-05,9.0170136133160348
3.4799999999999999e-05,9.0136568396002978
3.4900000000000001e-05,9.0103013155144414
3.4999999999999997e-05,9.0069470405933032
3.5099999999999999e-05,9.003594014371803
3.5200000000000002e-05,9.0002422363850929
3.5299999999999997e-05,8.9968917061685509
3.54e-05,9.0613927098278282
3.5499999999999996e-05,9.1592793020174508
3.5599999999999998e-05,9.2571401505709545
3.57e-05,9.3549889959045363
3.5799999999999996e-05,9.4528368527137676
3.5899999999999998e-05,9.5506925490314725
3.6000000000000001e-05,9.6485631587736975
3.6099999999999997e-05,9.7464543482457415
3.6199999999999999e-05,9.8443706537379949
3.6300000000000001e-05,9.9423157069269887
3.6399999999999997e-05,10.040292411381722
3.65e-05,10.13830308853268
3.6599999999999995e-05,10.236349591229345
3.6699999999999998e-05,10.313947665622415
3.68e-05,10.309648129163087
3.6899999999999996e-05,10.30539436181108
3.6999999999999998e-05,10.301183649736098
3.7100000000000001e-05,10.297013468949944
3.7199999999999996e-05,10.292881472717768
3.7299999999999999e-05,10.288785479129263
3.7400000000000001e-05,10.284723459547719
3.7499999999999997e-05,10.280693527867321
3.7599999999999999e-05,10.276693930522963
3.7700000000000002e-05,10.272723037199956
3.7799999999999997e-05,10.268779332195356
3.79e-05,10.264861406387507
3.7999999999999995e-05,10.260967949761328
3.8099999999999998e-05,10.257097744462689
3.82e-05,10.253249658340209
3.8299999999999996e-05,10.249422638935723
3.8399999999999998e-05,10.245606779910101
3.8500000000000001e-05,10.241792631176189
3.8599999999999996e-05,10.23797990751506
3.8699999999999999e-05,10.234168603313368
3.8800000000000001e-05,10.230358717951797
3.8899999999999997e-05,10.226550250900532
3.8999999999999999e-05,10.222743201631555
3.9099999999999995e-05,10.21893756961704
3.9199999999999997e-05,10.215133354329389
3.93e-05,10.211330555241258
3.9399999999999995e-05,10.277782480012123
3.9499999999999998e-05,10.378792948175246
3.96e-05,10.479766453026835
3.9699999999999996e-05,10.580718511392382
3.9799999999999998e-05,10.681661565181249
3.9900000000000001e-05,10.782605586215103
3.9999999999999996e-05,10.883558567880337
4.0099999999999999e-05,10.984526913962194
4.0200000000000001e-05,11.085515753447524
4.0299999999999997e-05,11.186529193130012
4.0399999999999999e-05,11.287570519913409
4.0499999999999995e-05,11.388642361358865
4.0599999999999998e-05,11.489746817556997
4.07e-05,11.569654794099661
4.0799999999999996e-05,11.564675811472098
4.0899999999999998e-05,11.559728062904407
4.1e-05,11.554809657943592
4.1099999999999996e-05,11.549918838453337
4.1199999999999999e-05,11.545053970167805
4.1300000000000001e-05,11.540213534012679
4.1399999999999997e-05,11.535396118026741
4.1499999999999999e-05,11.530600409860106
4.1599999999999995e-05,11.525825189787074
4.1699999999999997e-05,11.52106932421928
4.18e-05,11.51633175966127
4.1899999999999995e-05,11.511611517103463
4.1999999999999998e-05,11.506907686795795
4.21e-05,11.502219423396738
4.2199999999999996e-05,11.497545941456476
4.2299999999999998e-05,11.492886511216842
4.2400000000000001e-05,11.488240454711653
4.2499999999999996e-05,11.483607142132161
4.2599999999999999e-05,11.478985988451514
4.2700000000000001e-05,11.474376450287837
4.2799999999999997e-05,11.469778022981821
4.2899999999999999e-05,11.465190237882609
4.2999999999999995e-05,11.460612659823864
4.3099999999999997e-05,11.456044884775469
4.32e-05,11.451486537659544
4.3299999999999995e-05,11.446937270322072
4.3399999999999998e-05,11.51509496545065
4.35e-05,11.61903447491032
4.3599999999999996e-05,11.722954751952237
4.3699999999999998e-05,11.826867405457101
4.3800000000000001e-05,11.930781739649493
4.3899999999999996e-05,12.034705212760352
4.3999999999999999e-05,12.13864379934852
4.4100000000000001e-05,12.242602283662018
4.4199999999999997e-05,12.346584496983487
4.4299999999999999e-05,12.450593504259494
4.4399999999999995e-05,12.554631756041072
4.4499999999999997e-05,12.658701210020302
4.46e-05,12.762803428736724
4.4699999999999996e-05,12.8449671511768
4.4799999999999998e-05,12.839267815525504
4.49e-05,12.83358314614364
4.4999999999999996e-05,12.827912217973212
4.5099999999999998e-05,12.822254170778056
4.5200000000000001e-05,12.81660820558055
4.5299999999999997e-05,12.810973580359429
4.5399999999999999e-05,12.805349606063979
4.5499999999999995e-05,12.799735642895861
4.5599999999999997e-05,12.794131096861245
4.57e-05,12.788535416555931
4.5799999999999995e-05,12.782948090182872
4.5899999999999998e-05,12.777368642774011
4.6e-05,12.771796633609197
4.6099999999999996e-05,12.766231653814339
4.6199999999999998e-05,12.760673324130218
4.6300000000000001e-05,12.755121292834559
4.6399999999999996e-05,12.749575233812775
4.6499999999999999e-05,12.744034844761751
4.6600000000000001e-05,12.738499845520067
4.6699999999999997e-05,12.732969976515742
4.6799999999999999e-05,12.727444997323005
4.6899999999999995e-05,12.721924685318204
4.6999999999999997e-05,12.716408834432379
4.71e-05,12.710897253990346
4.7199999999999995e-05,12.70538976763021
4.7299999999999998e-05,12.699886212299837
4.74e-05,12.769587965198447
4.7499999999999996e-05,12.876335799787203
4.7599999999999998e-05,12.983096949498192
4.7700000000000001e-05,13.08987622102434
4.7799999999999996e-05,13.196677461351488
4.7899999999999999e-05,13.303503749866262
4.8000000000000001e-05,13.410357547234947
4.8099999999999997e-05,13.517240820323558
4.8199999999999999e-05,13.624155137313959
4.8299999999999995e-05,13.731101748704605
4.8399999999999997e-05,13.838081650272755
4.85e-05,13.945095630205525
4.8599999999999995e-05,14.052144314317422
4.8699999999999998e-05,14.136517385411281
4.88e-05,14.130064437259511
4.8899999999999996e-05,14.12360737651176
4.8999999999999998e-05,14.117146398391672
4.9100000000000001e-05,14.11068168460447
4.9199999999999997e-05,14.10421340540835
4.9299999999999999e-05,14.097741720423933
4.9399999999999995e-05,14.091266779357772
4.9499999999999997e-05,14.084788722727225
4.9599999999999999e-05,14.078307682474289
4.9699999999999995e-05,14.071823782596317
4.9799999999999998e-05,14.065337139670898
4.99e-05,14.058847863392199
4.9999999999999996e-05,14.052356057057686
5.0099999999999998e-05,14.045861818001994
5.02e-05,14.039365238023082
5.0299999999999996e-05,14.032866403766375
5.0399999999999999e-05,14.026365397087483
5.0500000000000001e-05,14.019862295384478
5.0599999999999997e-05,14.013357171911174
5.0699999999999999e-05,14.006850096067502
5.0799999999999995e-05,14.000341133668279
5.0899999999999997e-05,13.993830347193455
5.1e-05,13.987317796021802
5.1099999999999995e-05,13.98080353664783
5.1199999999999998e-05,13.974287622882505
